# Omega_m = 0.258
# Omega_de = 0.742
# H0 = 72.0
# massDef = MvirC15
# concenDef = TJ03
# hmfDef = ST02
# biasDef = T08
# log10M1 = 12.529
# log10Mstar0 = 10.748
# beta = 0.356
# delta = 0.749
# gamma = 0.807
# log10Mstar_min = 10.4451
# log10Mstar_max = 10.6451
# sigma_log_M0 = 0.394
# sigma_lambda = 0.253
# B_cut = -1.0
# B_sat = 9.956
# beta_cut = -1.0
# beta_sat = 0.872
# alpha = 1.139
# fcen1 = -1.0
# fcen2 = -1.0
# hod = 1
# IxXB_Re = 0.01196
# IxXB_CR = 6.56997872802e-05
# gas_log10n0 = -3.0
# gas_log10beta = -1.0
# gas_log10rc = -1.0
# gas_log10n0_1 = -2.11726021929
# gas_log10n0_2 = -0.29693164
# gas_log10n0_3 = nan
# gas_log10n0_4 = nan
# gas_log10beta_1 = -0.32104805
# gas_log10beta_2 = 0.26463453
# gas_log10beta_3 = nan
# gas_log10beta_4 = nan
# gas_log10rc_1 = -1.12356845357
# gas_log10rc_2 = 0.73917722
# gas_log10rc_3 = nan
# gas_log10rc_4 = nan
# ggl_pi_max = 60.0
# ggl_log10c = 0.69
# ggl_log10Mh = 13.257332
# ggl_log10Mstar = 11.0
# wtheta_nz_N = 40
# wtheta_nz_z = <__main__.LP_c_double object at 0x10d2ff9e0>
# wtheta_nz = <__main__.LP_c_double object at 0x10d2ff9e0>
# XMM_PSF_rc_deg = nan
# XMM_PSF_alpha = nan
# theta total cen sat XB twohalo
0.0001 409.42117416953164 281.7806642797608 22.653029934288615 102.382927554244 2.604552401238219
0.00011154865637172875 396.7002490840316 281.06906262657924 22.662464666173552 90.36662917393316 2.6020926173456536
0.00012443102738338022 384.76606125170093 280.21429729457196 22.674472226313707 79.27202518376342 2.605266547051812
0.0001388011391556985 373.8359311252473 279.17823369994545 22.690335967117683 69.36260612748355 2.6047553307006623
0.00015483080575683518 363.69835384919674 277.9369810978884 22.711084431296864 60.445385690456185 2.6049026295553035
0.0001727116834712707 354.30283302175326 276.4770526939628 22.740651697126427 52.480265845949326 2.6048627847147094
0.0001926575623091956 345.52197208891346 274.75378091224786 22.778099924976942 45.38520784493733 2.6048834067513726
0.0002149069221544338 337.28888438751176 272.7404409949715 22.85144717537385 39.09213166668941 2.6048645504770307
0.00023972578411310795 329.53531141898105 270.409256432617 22.988554250442434 33.53263969348261 2.604861042438985
0.0002674108911547631 321.97025335143707 267.7303845035186 22.993172356745017 28.641845894785973 2.604850596387523
0.0002982932560748043 314.62746960127134 264.6758306158677 22.988986312024814 24.357781516862232 2.6048711565166127
0.000332742119198924 307.46374336337124 261.2532628370169 22.983838893530763 20.621745908440882 2.6048957243827036
0.0003711693631492158 300.35509335602427 257.39174155238044 22.98005684262091 17.378412422321926 2.604882538701025
0.00041403443745645276 293.2831730063569 253.12710646572285 22.975266723467172 14.575929350026021 2.604870467140844
0.00046184985189891867 286.175329696179 248.43506066630047 22.96941733802218 12.165974016808928 2.604877675047394
0.000515187304248063 278.99976483107764 243.3296050500177 22.961500434558978 10.103768846630414 2.6048904998705185
0.0005746845156864445 271.71887507276404 237.81471198519796 22.951180306851573 8.348060739577203 2.6049220411372644
0.0006410528556246056 264.3082021407389 231.90373037429876 22.93847634781511 6.8610661742665044 2.604929244358506
0.0007150858470818457 256.87890581019906 225.74196352713932 22.92360030489834 5.608385265408057 2.604956712753329
0.0007976686543241938 249.29725291062462 219.22747712538225 22.90588260480118 4.558888215312549 2.6050049651286473
0.0008897886661970877 241.56642762620316 212.39324742359247 22.883608617944386 3.6845779230856928 2.604993661580606
0.000992547301690778 233.80311663747491 205.38182531120918 22.855469600210093 2.9604326789757156 2.605389047079944
0.0011071731788899106 225.92823233319996 198.13803292337482 22.820836163582854 2.364232958546485 2.605130287695767
0.0012350368047598522 217.7341326193917 190.47325999776393 22.779218582887562 1.8763763654295993 2.6052776733106007
0.001377666961405946 209.7453151431519 182.93196669487025 22.728419645820427 1.4796849814479873 2.6052438210132505
0.0015367689847255556 201.65319319750827 175.22268455194674 22.66586616339045 1.1592076106217435 2.6054348715493307
0.0017142451539988147 193.53118875142752 167.43506039985823 22.58864788337982 0.9020211837918489 2.605459284397623
0.0019122174362031482 185.42990580622535 159.6328624331521 22.49439722550561 0.69703492955066 2.6056112180169686
0.0021330528569905314 177.41603169546326 151.89475954860183 22.380672465000124 0.5347996791760486 2.6058000026852843
0.00237939180167171 169.39104339426768 144.13355011546562 22.244450163924483 0.40732467388417976 2.6057184409933893
0.002654179584583862 161.3918762555558 136.3952070426349 22.08133897750509 0.30790382963325635 2.607426405782535
0.0029607016642960297 153.53049836547052 128.80658081280973 21.88602663684821 0.2309529886498632 2.606937927162717
0.0033026229256976325 145.66683767649891 121.23456958471442 21.653643292817005 0.17185926814024596 2.6067655308272184
0.0036840314986403863 137.84290012702266 113.72907870840326 21.37964279980869 0.1268432172214941 2.607335401589221
0.0041094876370446135 130.03462767808875 106.27498312772022 21.058855671533124 0.09283412320790504 2.607954755627496
0.004584078242885572 122.23596822021894 98.87471819204424 20.685017339346906 0.06735849307266031 2.608874195755141
0.005113477686967608 114.42456701088075 91.51276726867694 20.25050663025653 0.04844146537142299 2.6128516465758427
0.00570401565368052 106.51296103020519 84.11985466513094 19.749373517006163 0.034520387140789366 2.609212460927292
0.006362752820913695 98.5041787485316 76.69534334571225 19.17597205039211 0.0243701349050404 2.6084932175221955
0.007097565279983495 90.20301104617032 69.04519725945916 18.525620677015567 0.017039292307169298 2.6151538173884123
0.007917238704927916 81.74687451662385 61.3269495997371 17.79408044369526 0.011796166951274247 2.6140483062402255
0.00883157339708955 72.78240179773141 53.17954493853043 16.977279735531788 0.0080836446482802 2.6174934790209083
0.009851501460936432 62.590790295770354 43.88785856043526 16.074099257624997 0.005481864949646896 2.6233506127604573
0.01098921751211582 51.276086162391174 33.55940273347633 15.085440038397735 0.003677719383026398 2.627565671134076
0.012258324480531902 39.934479261416726 23.28304982385499 14.015438354741297 0.0024402172311584753 2.6335508655892763
0.013673996251720034 29.979843250865127 14.464775496506038 12.872395234664344 0.0016008268212850587 2.64107169287346
0.01525315909111425 22.402801825179754 8.082114886007197 11.66884933334244 0.0010379771608328104 2.650799628669284
0.01701469402038014 17.20934937514656 4.12360734875538 10.421543313742019 0.0006649912138840737 2.6635337214352734
0.01897966256549492 13.790657444051718 1.9555852548485118 9.154088169510388 0.0004208080884791549 2.6805632116043383
0.021171558575697566 11.468478726919992 0.8684295351421253 7.89561079710932 0.0002629327759849817 2.7041754618925613
0.02361658912414415 9.773611593381094 0.3601499074572107 6.675255241929581 0.0001621610352822324 2.7380442829590197
0.026343987848814622 8.448623594941008 0.13775837943022037 5.523665291409476 9.868115090348364e-05 2.787101242950409
0.0293863644800842 7.368075977453433 0.04834732967765431 4.468632599836482 5.923092948041071e-05 2.8510368170098155
0.032780094734032844 6.462804296060618 0.015592968370667048 3.5287691387764246 3.505306037198299e-05 2.918407135853154
0.03656575523319345 5.698567243258116 0.0050194929949820225 2.7147839069095565 2.044551532737607e-05 2.9787433978382496
0.04078860865480238 5.04450335696479 0.0016849840788913319 2.030123925623097 1.1748738406804272e-05 3.012682698524395
0.045499144907154725 4.476650167275394 0.0005684651321214659 1.4703483823669945 6.648527851098811e-06 3.0057266712484267
0.05075368480455694 3.9910663625252405 0.00019137631276450374 1.0255756765936874 3.703507007984789e-06 2.9652956061117806
0.05661505345862554 3.578465189796931 6.242380872852151e-05 0.6847292813037228 2.0298167044468303e-06 2.8936714548677753
0.06315333143723273 3.237729997449978 1.9408778784029647e-05 0.43643460624291436 1.0940872121835967e-06 2.8012748883410676
0.07044669267221762 2.955485691657755 5.625672124059395e-06 0.26775632606411315 5.796929558543488e-07 2.687723160228562
0.07858233913417985 2.7300466035396247 1.4589389095131367e-06 0.1608590283459067 3.017810612637943e-07 2.569185814473747
0.0876575434496528 2.533069845652863 3.2165725529622053e-07 0.09373536033536421 1.5428597912608227e-07 2.4393340093742646
0.09778081192655202 2.3543405382135427 4.745662520956129e-08 0.04956041764518805 7.742651654581308e-08 2.304779995685213
0.10907318189343589 2.1891046518876993 7.021738356796852e-10 0.02037758242726554 3.812109028353705e-08 2.1687270306371698
0.12166966886401946 2.0411163672401953 6.455643050123965e-11 0.004738357257815619 1.8404812706557947e-08 2.0363779915130107
0.13572088082974532 1.9065177131830107 -6.050670022746647e-12 -0.0002852842365455776 8.708823361958493e-09 1.9068029887167834
0.1513948189814561 1.785043222126641 -2.633839140088263e-15 -0.0002057105511664441 4.0365667734530205e-09 1.7852489286412434
0.16887888639022522 1.6706167826343115 -3.1947996312343335e-14 0.0006856945340744451 1.8316366605187245e-09 1.6699310862686323
0.18838212866383433 1.5613272472565085 1.4572873677447872e-13 0.0006392634762422352 8.131530512159953e-10 1.5606879829669675
0.2101377333689685 1.4580783912128954 -1.0326777012794965e-13 0.00015918479867155395 3.5295102094067016e-10 1.4579192060613761
0.23440581810309025 1.3593534503711708 4.898598721141674e-14 -0.00018029316529697968 1.4967896150062871e-10 1.3595337433867398
0.26147654055115566 1.265843173493334 -1.9212081613138818e-14 -0.00024349996098745811 6.197743200055205e-11 1.2660866733923632
0.29167356771209263 1.1771795888684506 6.692828493874488e-15 -0.00015447747683525298 2.5041236796118072e-11 1.177334066320238
0.3253579457743238 1.09259970064688 -2.1360878031490625e-15 -3.131415805822399e-05 9.86615506985695e-12 1.0926310147950742
0.362932416909916 1.0113121322113807 6.331381187955575e-16 6.976451132218828e-06 3.788163903653776e-12 1.0113051557564596
0.40484623460045177 0.9328671543855976 -1.7487679240777815e-16 -2.2751919471160456e-06 1.416494178003216e-12 0.9328694295761284
0.45160053506834075 0.857052815065066 4.472270766049498e-17 6.559263690580927e-07 5.154882918878788e-13 0.8570521591381814
0.5037543290362718 0.7842745038372803 -1.0378751507876601e-17 -1.6562214351732592e-07 1.824507698468175e-13 0.7842746694592413
0.5619311854543787 0.7147205392442639 2.0763604999333967e-18 3.477459829182615e-08 6.276017428746742e-14 0.7147205044696029
0.6268266871080866 0.6480824392164141 -3.034781696601308e-19 -4.926118658241927e-09 2.0964814698014375e-14 0.6480824441425117
0.6992167472484909 0.5842556739944034 2.094163991997547e-21 -2.4692655194498605e-10 6.794605606249812e-15 0.5842556742413231
0.7799668866817984 0.5231579144649936 2.1179186294045013e-20 5.348190802020047e-10 2.1340401624509485e-15 0.5231579139301724
0.8700425822379502 0.46556147344558824 -1.1054550124567887e-20 -2.6715947859262255e-10 6.488039056238454e-16 0.4655614737127471
0.9705208103483266 0.4115291476826871 4.214247864391017e-21 1.0202568003925567e-10 1.9076936679941875e-16 0.4115291475806612
1.0826029237515722 0.36094268418416803 -1.3968318335332774e-21 -3.4179924061756665e-11 5.4201448962501806e-17 0.3609426842183479
1.2076290152859297 0.3135120239403974 4.2346212459663695e-22 1.0492323006898907e-11 1.4867999442612484e-17 0.31351202392990507
1.3470939405065936 0.2694735716905543 -1.1958753772197654e-22 -2.9994877199584356e-12 3.934412838648109e-18 0.2694735716935538
1.502665190700077 0.22861004372187033 3.158073244318986e-23 8.009817850626868e-13 1.0035903770181686e-18 0.22861004372106936
1.6762028299916114 0.19137457352768364 -7.742434894622475e-24 -1.9827826720715808e-13 2.4658193377971546e-19 0.19137457352788192
1.8697817349205355 0.15779553874378416 1.7232323103266717e-24 4.447169154951593e-14 5.831467103431924e-20 0.1577955387437397
2.085716402387856 0.12810129503062823 -3.289215019430526e-25 -8.52530617674144e-15 1.3263694536713896e-20 0.12810129503063675
2.326588622588413 0.10240871585175797 4.4452861544968276e-26 1.1443334019224524e-15 2.8986120352119464e-21 0.10240871585175683
2.5952783477948858 0.08071345906785102 9.174413612650029e-28 3.355567640265009e-17 6.077283057586197e-22 0.08071345906785099
2.8949981260715965 0.06338358100191269 -3.573954218669723e-27 -9.837605189655454e-17 1.2195347747374294e-22 0.06338358100191278
3.229331511619592 0.049937708672400674 1.74904778657258e-27 4.7854866661544e-17 2.3374831916561163e-23 0.049937708672400626
3.6022759110004925 0.03846498040587366 -6.459398134015312e-28 -1.7688304542436104e-17 4.273629316675745e-24 0.03846498040587368
4.018290377523501 0.028028560587024465 2.092378265249504e-28 5.742853453642009e-18 7.443845113453079e-25 0.028028560587024458
4.482348925241932 0.01888670429402393 -6.222279667432081e-29 -1.7122629916822012e-18 1.2338324816887673e-25 0.01888670429402393
5.000000000000001 0.012756242325649233 1.7265486910784186e-29 4.763399298853456e-19 1.9442642218708815e-26 0.012756242325649233
