# Omega_m = 0.258
# Omega_de = 0.742
# H0 = 72.0
# massDef = M200m
# concenDef = TJ03
# hmfDef = T08
# biasDef = T08
# log10M1 = 12.529
# log10Mstar0 = 10.748
# beta = 0.356
# delta = 0.749
# gamma = 0.807
# log10Mstar_min = 10.0
# log10Mstar_max = 11.0
# sigma_log_M0 = 0.394
# sigma_lambda = 0.253
# B_cut = -1.0
# B_sat = 9.956
# beta_cut = -1.0
# beta_sat = 0.872
# alpha = 1.139
# fcen1 = -1.0
# fcen2 = -1.0
# hod = 1
# IxXB_Re = 0.01196
# IxXB_CR = 6.56997872802e-05
# gas_log10n0 = -3.0
# gas_log10beta = -1.0
# gas_log10rc = -1.0
# gas_log10n0_1 = -2.5
# gas_log10n0_2 = 1.0
# gas_log10n0_3 = nan
# gas_log10n0_4 = nan
# gas_log10beta_1 = 0.301029995664
# gas_log10beta_2 = -0.45593195565
# gas_log10beta_3 = -0.301029995664
# gas_log10beta_4 = -0.301029995664
# gas_log10rc_1 = -0.52287874528
# gas_log10rc_2 = -1.39794000867
# gas_log10rc_3 = -1.09691001301
# gas_log10rc_4 = -1.09691001301
# ggl_pi_max = 60.0
# ggl_log10c = nan
# ggl_log10Mh = 14.0
# ggl_log10Mstar = nan
# wtheta_nz_N = 0
# wtheta_nz_z = <__main__.LP_c_double object at 0x109f99d40>
# wtheta_nz = <__main__.LP_c_double object at 0x109f99d40>
# HOD_cen_N = 9
# HOD_cen_log10Mh = <__main__.LP_c_double object at 0x109f99d40>
# HOD_cen_Ngal = <__main__.LP_c_double object at 0x109f99d40>
# HOD_sat_N = 8
# HOD_sat_log10Mh = <__main__.LP_c_double object at 0x109f99d40>
# HOD_sat_Ngal = <__main__.LP_c_double object at 0x109f99d40>
# XMM_PSF_rc_deg = nan
# XMM_PSF_alpha = nan
# theta total cen sat XB twohalo
0.0001 113.74734892192325 8.738613565105668 2.536675587218322 102.382927554244 0.08913221535525633
0.00011154865637172875 101.73139359400447 8.737722725995615 2.5379110310275204 90.36662917393316 0.08913066304818129
0.00012443102738338022 90.63064855742789 8.730015587321136 2.5394909357532023 79.27202518376342 0.08911685059013247
0.0001388011391556985 80.71846839672794 8.725095235004373 2.5416448996551377 69.36260612748355 0.0891221345848877
0.00015483080575683518 71.80814669582183 8.729150715135203 2.5444839037725244 60.445385690456185 0.08912638645791603
0.0001727116834712707 63.8466113455557 8.728650686256573 2.548574342214986 52.480265845949326 0.08912047113482173
0.0001926575623091956 56.75120397280043 8.723325381373737 2.5535499965389086 45.38520784493733 0.08912074995046151
0.0002149069221544338 50.452020970993786 8.706611399407464 2.5641488893394087 39.09213166668941 0.08912901555750251
0.00023972578411310795 44.90904354454646 8.705522985549763 2.581753997362929 33.53263969348261 0.08912686815116312
0.0002674108911547631 40.01644726031137 8.705046204969605 2.5804433921779326 28.641845894785973 0.08911176837785661
0.0002982932560748043 35.71872824572903 8.690695318101513 2.581129743385638 24.357781516862232 0.08912166737965195
0.000332742119198924 31.95652447223415 8.666536947866986 2.5791082015051146 20.621745908440882 0.08913341442117143
0.0003711693631492158 28.71447897497934 8.669795289517307 2.5771519831481418 17.378412422321926 0.08911927999196485
0.00041403443745645276 25.89924849529471 8.659300198336105 2.5748980921707956 14.575929350026021 0.08912085476179085
0.00046184985189891867 23.453404730934782 8.625849268928844 2.572456263251799 12.165974016808928 0.0891251819452101
0.000515187304248063 21.358932284516865 8.596510897916902 2.5695283680982697 10.103768846630414 0.08912417187128031
0.0005746845156864445 19.593163761397435 8.590163752509431 2.5658256416773955 8.348060739577203 0.08911362763340118
0.0006410528556246056 18.066336649719634 8.554280282625164 2.561881738143053 6.8610661742665044 0.08910845468491314
0.0007150858470818457 16.736121199427867 8.480646478322434 2.5579609601676396 5.608385265408057 0.08912849552973842
0.0007976686543241938 15.640013385008936 8.437651006956205 2.5543322071257397 4.558888215312549 0.0891419556144425
0.0008897886661970877 14.6967493049613 8.372422936224611 2.5506191261201705 3.6845779230856928 0.08912931953082563
0.000992547301690778 13.853092957212475 8.256715403858328 2.5468316811912537 2.9604326789757156 0.089113193187178
0.0011071731788899106 13.185807903650629 8.189179929858687 2.5432747738363717 2.364232958546485 0.08912024140908581
0.0012350368047598522 12.561042488892104 8.05526496898679 2.540264302721722 1.8763763654295993 0.089136851753991
0.001377666961405946 11.987300959974188 7.881971679578121 2.5365022929894834 1.4796849814479873 0.08914200595859864
0.0015367689847255556 11.49693080369593 7.718349483861772 2.53024562467156 1.1592076106217435 0.08912808454085541
0.0017142451539988147 11.024442986740626 7.513089491985341 2.5202147689868752 0.9020211837918489 0.08911754197656054
0.0019122174362031482 10.633610550337727 7.340510694610124 2.5069433575042614 0.69703492955066 0.08912156867267843
0.0021330528569905314 10.160842510911051 7.044244169029602 2.4926639613160773 0.5347996791760486 0.08913470138932277
0.00237939180167171 9.724474837381752 6.750318737939116 2.477682723172045 0.40732467388417976 0.08914870238641136
0.002654179584583862 9.261107639214352 6.404117435669931 2.4599283176572344 0.30790382963325635 0.08915805625393028
0.0029607016642960297 8.817269306790653 6.060793691224747 2.436359601826775 0.2309529886498632 0.08916302508926793
0.0033026229256976325 8.297234519485452 5.630347207134065 2.405861661917693 0.17185926814024596 0.0891663822934471
0.0036840314986403863 7.808956869121229 5.223802444703834 2.3691426044898516 0.1268432172214941 0.08916860270604937
0.0041094876370446135 7.363595807684867 4.855190598339823 2.326398762957751 0.09283412320790504 0.08917232317938745
0.004584078242885572 6.83118443225814 4.398048030468605 2.276593717594079 0.06735849307266031 0.08918419112279631
0.005113477686967608 6.336876526707212 3.9820826414736907 2.2172208536371083 0.04844146537142299 0.08913156622499054
0.00570401565368052 5.858707816523027 3.588134365409083 2.1471862595473463 0.034520387140789366 0.0888668044258078
0.006362752820913695 5.402882577445475 3.223272539578445 2.0659618235332404 0.0243701349050404 0.08927807942874962
0.007097565279983495 4.961940035658549 2.8820327015983533 1.973630236685125 0.017039292307169298 0.0892378050679023
0.007917238704927916 4.531750014105313 2.560155908453844 1.8705259225141029 0.011796166951274247 0.08927201618609172
0.00883157339708955 4.100884429235442 2.246201224052699 1.757236275508471 0.0080836446482802 0.08936328502599108
0.009851501460936432 3.685477902521813 1.9559180887459338 1.634945254182199 0.005481864949646896 0.08913269464403321
0.01098921751211582 3.295039177236717 1.6963822174182897 1.5056285704357635 0.003677719383026398 0.08935066999963762
0.012258324480531902 2.9376388252445573 1.4739113669903245 1.3717629534734255 0.0024402172311584753 0.08952428754964911
0.013673996251720034 2.596172382943497 1.2688957475992495 1.2360695042920127 0.0016008268212850587 0.08960630423095023
0.01525315909111425 2.281877091381256 1.0895046725447601 1.1016050430459468 0.0010379771608328104 0.08972939862971638
0.01701469402038014 1.9957970349957617 0.9342773430013498 0.9709734836023264 0.0006649912138840737 0.08988121717820127
0.01897966256549492 1.7274893445323496 0.7901162053143929 0.8468797247952207 0.0004208080884791549 0.09007260633425702
0.021171558575697566 1.4899137024248805 0.6683712952500828 0.7309614972754793 0.0002629327759849817 0.0903179771233336
0.02361658912414415 1.2720974417000273 0.5568942286911328 0.6244105272405007 0.0001621610352822324 0.0906305247331113
0.026343987848814622 1.0800543989235176 0.4609863020830312 0.5279408909005201 9.868115090348364e-05 0.09102852478906294
0.0293863644800842 0.9060744251985517 0.37263647757253543 0.44183424420098993 5.923092948041071e-05 0.09154447249554586
0.032780094734032844 0.7571450209009841 0.2990082475353604 0.36587731219014435 3.505306037198299e-05 0.09222440811510736
0.03656575523319345 0.6211005211623832 0.2284955275349568 0.2994430175179796 2.044551532737607e-05 0.09314153059411939
0.04078860865480238 0.4981490607756347 0.16182805151275875 0.24193941437529237 1.1748738406804272e-05 0.09436984614917673
0.045499144907154725 0.3910444179480923 0.10226128604417746 0.192679569393728 6.648527851098811e-06 0.09609691398233579
0.05075368480455694 0.3041735035695137 0.054646866953375714 0.1506802419877501 3.703507007984789e-06 0.09884269112137992
0.05661505345862554 0.24069656954372703 0.02278168746157104 0.1154079090059103 2.0298167044468294e-06 0.10250494325954122
0.06315333143723273 0.20353770392584486 0.0075828893692729245 0.08642942967724636 1.0940872121835967e-06 0.10952429079211337
0.07044669267221762 0.178258258344863 0.0010407252846469184 0.06275036999221711 5.796929558543488e-07 0.1144665833750431
0.07858233913417985 0.1520484812183102 -0.00011776829199361745 0.04394962580168941 3.017810612637943e-07 0.10821632192755312
0.0876575434496528 0.13270485308069463 4.3540956408329215e-05 0.02894498840083515 1.5428597912608232e-07 0.10371616943747203
0.09778081192655202 0.11570885393253993 -1.4616109897394746e-05 0.017770091381723026 7.74265165458131e-08 0.09795330123419776
0.10907318189343589 0.10207950116047979 4.469147983575393e-06 0.00992022213025742 3.8121090283537056e-08 0.0921547717611485
0.12166966886401946 0.09117125909089867 -1.2416308284465417e-06 0.005041563323025905 1.8404812706557947e-08 0.0861309189938885
0.13572088082974532 0.082918013357842 3.089792495024586e-07 0.002714677982660752 8.708823361958493e-09 0.08020301768710839
0.1513948189814561 0.07646850434428357 -6.58411655445912e-08 0.002152912453629549 4.0365667734530205e-09 0.0743156536952528
0.16887888639022522 0.07146946034044326 1.033519813166463e-08 0.0025595179726714237 1.8316366605187245e-09 0.06890993020093704
0.18838212866383433 0.06726323492132674 -2.1783045313135182e-10 0.0033039857943781927 8.131530512159953e-10 0.06395924853162595
0.2101377333689685 0.06329806210506016 -7.010865913101299e-10 0.0039016528955005156 3.5295102094067016e-10 0.05939640955769521
0.23440581810309025 0.05924647650476393 3.868715235363192e-10 0.004063933024259571 1.4967896150062871e-10 0.055182542943953874
0.26147654055115566 0.05480862699621528 -1.5230707344373587e-10 0.003543150778136268 6.197743200055205e-11 0.05126547630840866
0.29167356771209263 0.04989870085091693 5.1761022704708044e-11 0.002305187416374616 2.5041236796118072e-11 0.04759351335774006
0.3253579457743238 0.04468812628226665 -1.603244439754809e-11 0.0005677298761117991 9.86615506985695e-12 0.04412039641232114
0.362932416909916 0.04067267244511978 4.6172364431105995e-12 -0.00013260036297323377 3.788163903653776e-12 0.04080527279968761
0.40484623460045177 0.037662380344104573 -1.2429624084510959e-12 4.286618752290458e-05 1.416494178003216e-12 0.037619514156408136
0.45160053506834075 0.03454167138993054 3.1099287868927134e-13 -1.2290004076135523e-05 5.154882918878788e-13 0.0345539613931802
0.5037543290362718 0.031616321304809195 -7.092692663526052e-14 3.0923095657796823e-06 1.824507698468175e-13 0.031613228995131894
0.5619311854543787 0.028800504803132388 1.4037181722701196e-14 -6.480423925422421e-07 6.276017428746742e-14 0.02880115284544813
0.6268266871080866 0.026109333649036552 -2.066192287494873e-15 9.191250450939403e-08 2.0964814698014375e-14 0.026109241736513144
0.6992167472484909 0.02353194472775417 4.0351405021375245e-17 4.40019483082312e-09 6.794605606249812e-15 0.023531940327552504
0.7799668866817984 0.021074000228956575 1.2645132033644156e-16 -9.8379875877693e-09 2.1340401624509485e-15 0.0210740100669419
0.8700425822379502 0.018750194239701052 -6.711552572445317e-17 4.9200739673778685e-09 6.488039056238454e-16 0.018750189319626503
0.9705208103483266 0.016570513131943274 2.5569409063210518e-17 -1.878841469765587e-09 1.9076936679941875e-16 0.016570515010784527
1.0826029237515722 0.014532083338079677 -8.441376481299045e-18 6.292568511274968e-10 5.4201448962501806e-17 0.01453208270882278
1.2076290152859297 0.012624976748630265 2.5469693964443826e-18 -1.9310130234609095e-10 1.4867999442612484e-17 0.01262497694173155
1.3470939405065936 0.010847184887185106 -7.158931731016828e-19 5.518516322036515e-11 3.934412838648109e-18 0.010847184831999939
1.502665190700077 0.009204947236090692 1.88228972867624e-19 -1.4732387144928336e-11 1.0035903770181686e-18 0.009204947250823077
1.6762028299916114 0.007706562804185462 -4.596969454968449e-20 3.646015281176497e-12 2.4658193377971546e-19 0.0077065628005394465
1.8697817349205355 0.006358544443352863 1.0199798366406571e-20 -8.1760293178525e-13 5.831467103431924e-20 0.006358544444170466
2.085716402387856 0.005163568160510584 -1.9434670252372576e-21 1.5671895693453976e-13 1.3263694536713896e-20 0.005163568160353865
2.326588622588413 0.004127111381794449 2.63382501437004e-22 -2.103966414459681e-14 2.8986120352119464e-21 0.004127111381815488
2.5952783477948858 0.0032581503519103507 4.512691554801838e-24 -6.123352759618896e-16 6.077283057586197e-22 0.003258150351910963
2.8949981260715965 0.002564764419174102 -2.058365023823507e-23 1.8057765009356365e-15 1.2195347747374294e-22 0.002564764419172296
3.229331511619592 0.002020789996376767 1.010023248354802e-23 -8.785426129774406e-16 2.3374831916561163e-23 0.0020207899963776456
3.6022759110004925 0.0015617722883078835 -3.728712838651389e-24 3.2472380498182e-16 4.273629316675745e-24 0.0015617722883075587
4.018290377523501 0.0011373550480576595 1.206614789524635e-24 -1.0542219255316588e-16 7.443845113453079e-25 0.0011373550480577648
4.482348925241932 0.0007667062464487086 -3.5840656657331655e-25 3.143025514670833e-17 1.2338324816887673e-25 0.0007667062464486771
5.000000000000001 0.0005178948382273094 9.933643423319609e-26 -8.743151463555883e-18 1.9442642218708815e-26 0.0005178948382273181
