# Omega_m = 0.258
# Omega_de = 0.742
# H0 = 72.0
# massDef = M200m
# concenDef = TJ03
# hmfDef = T08
# biasDef = T08
# log10M1 = 12.529
# log10Mstar0 = 10.748
# beta = 0.356
# delta = 0.749
# gamma = 0.807
# log10Mstar_min = 10.0
# log10Mstar_max = 11.0
# sigma_log_M0 = 0.394
# sigma_lambda = 0.253
# B_cut = -1.0
# B_sat = 9.956
# beta_cut = -1.0
# beta_sat = 0.872
# alpha = 1.139
# fcen1 = -1.0
# fcen2 = -1.0
# hod = 0
# IxXB_Re = 0.01196
# IxXB_CR = 6.56997872802e-05
# gas_log10n0 = -2.2757241304
# gas_log10beta = -0.397940008672
# gas_log10rc = -1.70098053993
# gas_log10n0_1 = -2.5
# gas_log10n0_2 = 1.0
# gas_log10n0_3 = nan
# gas_log10n0_4 = nan
# gas_log10beta_1 = 0.301029995664
# gas_log10beta_2 = -0.45593195565
# gas_log10beta_3 = -0.301029995664
# gas_log10beta_4 = -0.301029995664
# gas_log10rc_1 = -0.52287874528
# gas_log10rc_2 = -1.39794000867
# gas_log10rc_3 = -1.09691001301
# gas_log10rc_4 = -1.09691001301
# ggl_pi_max = 60.0
# ggl_log10c = nan
# ggl_log10Mh = 14.0
# ggl_log10Mstar = nan
# wtheta_nz_N = 0
# wtheta_nz_z = <__main__.LP_c_double object at 0x109f4ab00>
# wtheta_nz = <__main__.LP_c_double object at 0x109f4ab00>
# HOD_cen_N = 0
# HOD_cen_log10Mh = <__main__.LP_c_double object at 0x109f4ab00>
# HOD_cen_Ngal = <__main__.LP_c_double object at 0x109f4ab00>
# HOD_sat_N = 0
# HOD_sat_log10Mh = <__main__.LP_c_double object at 0x109f4ab00>
# HOD_sat_Ngal = <__main__.LP_c_double object at 0x109f4ab00>
# XMM_PSF_rc_deg = 0.00211586211541
# XMM_PSF_alpha = 1.851542
# theta total cen sat XB twohalo
0.0001 468.1604339688601 230.8413897043784 1.9223813529989613 9.885299068454918 8.955824066114673
0.00011497569953977356 452.5307732471032 230.98528471999663 1.9239940474834551 9.799313635150638 8.963075246444214
0.00013219411484660288 438.3769281525508 234.16224115053782 1.943705576641749 10.284313605881485 9.047366126771484
0.0001519911082952933 425.8190190963512 233.916562007145 1.9435374358185669 10.463665481998845 9.047573583573346
0.0001747528400007683 414.57522085581087 233.59287949556207 1.9432063920574214 10.225893341479319 9.047845858403326
0.00020092330025650479 404.41904559860257 233.1668786259253 1.9426005038845422 9.87951821744789 9.048206469658435
0.00023101297000831605 395.13914460341454 232.60645546782317 1.9417441534741469 9.511691549723484 9.048683240720393
0.00026560877829466864 386.40279256671323 231.87085106737854 1.9406602057919253 8.934017343016665 9.049311121371083
0.0003053855508833416 377.9425761876228 230.90771069497512 1.939293888674215 8.385836585676504 9.05014226689645
0.0003511191734215131 369.4730809471309 229.65040325663955 1.9372554904312949 7.975589941537766 9.051245171714715
0.0004037017258596554 360.66848848922143 228.01650118433773 1.9342824738421422 7.382503215686412 9.052704550902117
0.0004641588833612782 351.1754562262559 225.90100444901324 1.9302956381454928 6.7098505681806975 9.054631051924702
0.0005336699231206312 340.63083162310494 223.18275220828545 1.9251745097991058 6.084674305613203 9.057184208296212
0.0006135907273413176 328.6882142131092 219.71622305045054 1.9188241875486378 5.415643928686792 9.060567660707228
0.0007054802310718645 315.04834432974576 215.33963662106575 1.9111866955047414 4.795044555848009 9.065054043699368
0.0008111308307896872 299.50423781693485 209.88402637282846 1.9022611670410448 4.202769927804166 9.071003388918175
0.0009326033468832199 281.988168716087 203.17981003666205 1.8920626732040486 3.5801922213903703 9.078897692531175
0.0010722672220103231 262.616571350985 195.09202918888687 1.8803458630728316 2.932218131060249 9.089386206721684
0.0012328467394420659 241.71297540337315 185.5276065813214 1.866460383048036 2.466668756183396 9.103364586788102
0.0014174741629268048 219.77289004543042 174.48601156978762 1.8484393998884692 2.0321967544551396 9.122012556572187
0.0016297508346206436 197.40037524009017 162.0640188992857 1.823494380065556 1.60573038850447 9.14697687003319
0.001873817422860383 175.26911470058263 148.4777457917813 1.7899402472605848 1.2210030145300892 9.180555032257137
0.0021544346900318843 154.04241024863373 134.06642692139113 1.7490340784405392 0.9316779312931318 9.225917378978432
0.0024770763559917113 134.24508910558606 119.24883934986772 1.7022583774004099 0.660356169368705 9.287782349783388
0.002848035868435802 116.20383538866889 104.50465917027697 1.6472462287641179 0.4788769133439453 9.372959446868027
0.0032745491628777285 100.09274660717385 90.29213869681162 1.5814262440933544 0.3314373737983568 9.491964025186714
0.0037649358067924675 85.98130703947538 77.00790985393006 1.506206107807627 0.21150245165902828 9.661617871057548
0.004328761281083062 73.84655634850954 64.94965874602998 1.425292205678176 0.14099069903323877 9.909857411199736
0.004977023564332114 63.64550645127723 54.270314791784685 1.3398547555464055 0.08817733081806396 10.285727920212802
0.00572236765935022 55.2672257147444 45.01969822260008 1.2494486575110744 0.057782254405885025 10.867714617788115
0.006579332246575682 49.79989634740578 37.13951235193419 1.155522310426082 0.03472921166623033 11.620590042612546
0.007564633275546291 42.288897616346006 30.51346157000564 1.0611585299068484 0.020398225946470595 11.278271594488237
0.008697490026177835 35.74136108601936 24.99870966990179 0.9687095415264719 0.01239345579515627 10.33087596789038
0.01 30.192738571972434 20.43368376943794 0.8792683780103837 0.0076378367360348115 9.33845827823703
0.011497569953977356 25.588431629030367 16.671122088072394 0.7930684403549403 0.004442606699938811 8.415481515734822
0.013219411484660288 21.558956278543057 13.576912604642356 0.7101978241616678 0.002371211298042095 7.476065072625862
0.01519911082952933 18.05148672697656 11.034637561292714 0.6309293854354688 0.001306109951504316 6.5524471554821035
0.01747528400007685 15.17121325955788 8.948248656541931 0.5556965845969316 0.0007398233156974557 5.780489523247716
0.02009233002565048 12.81175894064194 7.234417745876513 0.48539413333339365 0.0004058096502465748 5.148565586681977
0.023101297000831605 10.719814752248682 5.826485012527426 0.42054564137855127 0.00025003883053820544 4.509140358532032
0.026560877829466867 8.862055476592877 4.668690631852661 0.36151053912782083 0.00010976758584151487 3.8699600091848385
0.030538555088334154 7.401420682980573 3.715809194580004 0.30835838476355365 6.868638403916566e-05 3.4032736102327097
0.03511191734215131 6.279775714416173 2.929849766181105 0.25997355455518917 2.933843142539925e-05 3.0944250622109655
0.040370172585965536 5.189675889520452 2.2797759148759114 0.2142729820314943 1.3986899870134377e-05 2.6946016516725506
0.04641588833612782 4.042709163965926 1.7392839927101167 0.1707406246435037 1.6998538747100523e-05 2.1380484559865605
0.05336699231206313 3.051914263165812 1.2854217161290316 0.1296850173650525 3.1200602494436954e-06 1.6418650482730317
0.061359072734131756 2.2554437814963997 0.8919451286145186 0.09155889469256959 1.6059129694915327e-06 1.2714215336418522
0.07054802310718646 1.399279081607405 0.5377408714297188 0.05709494494801859 7.344696297319197e-07 0.8008159874182665
0.08111308307896872 0.30327498833716504 0.07868585805939445 0.02844607481789949 2.736839192110628e-07 0.20458294325114793
0.093260334688322 -0.11623094569745482 0.0038485505124691045 0.010749166271570644 8.751396026754289e-07 -0.1280109120359496
0.10722672220103231 -0.03219641819406683 -0.004431904551617966 0.0035240162365567803 4.884291554383428e-08 -0.030484157338231593
0.12328467394420659 0.10694302198355606 0.0006760665923607386 0.0013623369039544118 2.0673675938103166e-08 0.10365562184530648
0.14174741629268048 0.009587038685427974 0.00012717760769607848 0.00047379276823921075 1.7803393463667543e-08 0.009044960597411911
0.16297508346206452 -0.08190548017869005 -4.235249436391564e-05 4.5337077822049284e-05 2.685339453738051e-09 -0.08135284931501864
0.1873817422860385 -0.0016426466420253615 4.512755851503997e-06 -5.273156861328131e-05 3.857699836757064e-09 -0.0016447760404442193
0.21544346900318845 0.06781222988003217 2.5286639035349196e-06 -3.0136264378672523e-05 4.470963430863137e-10 0.06758857591736454
0.24770763559917114 0.0034504552760843215 1.234134611778747e-07 -1.9233881457080205e-05 1.2754820681549534e-10 0.0034842839488464315
0.2848035868435802 -0.055935199164224576 5.581977178776298e-07 -1.953503187272613e-05 3.1965104544919384e-09 -0.055790823462106565
0.32745491628777285 -0.008051415527280238 1.162781287938839e-07 -4.724965056703364e-06 1.2918361074412615e-11 -0.008042931906068944
0.37649358067924676 0.04347809069182547 6.543333412116902e-08 2.3326509921709548e-07 1.6370795910257862e-11 0.0434219399833518
0.43287612810830617 0.009955062962266729 3.3506032263645714e-08 1.8773412411487088e-07 6.348656206750632e-12 0.00994936879703573
0.49770235643321137 -0.03323295178542084 1.1724098275459205e-08 -4.628588007723712e-08 3.693073903472372e-13 -0.033208423736940884
0.572236765935022 -0.010456351181803894 4.750899711858811e-08 -1.8678379319600242e-10 1.9507107226230376e-10 -0.010453155135458638
0.6579332246575682 0.024803610275994238 3.0116481667681945e-09 2.5133669323395655e-09 5.729377079125592e-14 0.024792708767939924
0.7564633275546291 0.009885333896361686 1.7309240042996622e-09 -1.4666880488718244e-10 4.2314364438817026e-14 0.009883603586476655
0.8697490026177834 -0.0182931851914881 1.9426003818401625e-09 6.787730299155666e-11 3.6561436398979665e-13 -0.018288352587929827
1.0 -0.0094133066940283 3.0003325586567333e-10 4.979006541550276e-11 7.434244888046375e-16 -0.009412074369808798
1.1497569953977356 0.013162204286316826 6.339306695010423e-10 3.662322206431493e-11 8.491964630068946e-14 0.013160122411894227
1.3219411484660286 0.008391356309772325 1.0483767611210545e-10 9.729693988821051e-12 6.579511954736232e-16 0.008390595254728071
1.5199110829529332 -0.009444727482586115 2.2976467908422596e-11 2.9786235643094282e-12 5.845674478371084e-17 -0.00944390091315316
1.747528400007683 -0.007496611321934151 3.5010274872913667e-10 1.3746113345975125e-11 1.4315311783756024e-13 -0.007496184601910501
2.009233002565046 0.006375677523535072 -3.2980989569822176e-13 2.2928534952567757e-13 2.293342243588763e-18 0.006375336212649477
2.310129700083158 0.006157946040032938 1.1460717376256337e-11 1.1187514457343938e-12 4.9641776194759884e-17 0.006157757344029625
2.6560877829466896 -0.004345453339715954 5.700173332749329e-12 5.791832630265051e-13 1.2772973801951322e-17 -0.00434530751655627
3.0538555088334185 -0.005174274343207884 -1.3324425303077831e-15 1.8624185047106055e-15 3.777258703001503e-20 -0.0051741888637342
3.5111917342151346 0.002559449960702127 3.5236290443377006e-11 1.6233078662785777e-12 7.93158902623044e-15 0.0025593890881257723
4.037017258596558 0.0039888648644686225 1.898713730248335e-16 6.162630154677155e-16 9.910449506866058e-21 0.003988823720651318
4.641588833612782 -0.001527928422133965 5.162271580517709e-16 1.107358496701474e-15 1.434773398766161e-20 -0.0015279093356144473
5.336699231206313 -0.0032202317925040564 4.535901612295675e-13 4.6588729164696084e-14 5.348830922242825e-19 -0.003220211740332375
6.135907273413176 0.0005398721747491908 -9.945743380128697e-21 -1.0750183782537656e-17 1.4952477905248922e-23 0.0005398664821929023
7.054802310718645 0.0022104744714831403 8.877963285652035e-14 1.1763300715489277e-14 1.0664271866073367e-19 0.0022104659268200153
8.111308307896872 -0.00017370151451076582 2.0419820958132192e-19 -5.164466162549362e-18 4.635683722202717e-23 -0.000173699866844695
9.326033468832199 -0.0016406139051005708 1.7805486783755796e-21 -8.997177206605397e-19 1.3963945106861257e-24 -0.0016406108242329998
10.722672220103231 -0.00034639991170804944 1.3296033045267305e-13 1.3373296242708255e-14 3.2072929216631384e-19 -0.00034640031155490364
12.32846739442066 0.0008108559044202063 -1.947111671036588e-24 1.2795702627198974e-21 9.372465831868109e-27 0.0008108548711075232
14.174741629268048 0.00031416636970553073 6.429577854931232e-21 -8.72531344934196e-19 2.5293686224229612e-24 0.0003141662797161441
16.297508346206435 -0.0005348717137156053 4.370357602179963e-22 -1.3363667682665866e-19 2.9163240422680625e-25 -0.0005348714498391155
18.73817422860383 -0.0006641425680927232 -5.0617704350875615e-27 3.822842376097601e-24 3.4287233572298937e-29 -0.0006641424239205865
21.544346900318867 -0.0002458995611317318 1.2987690063953409e-14 1.3336437202914691e-15 1.90627937657338e-20 -0.0002458996251260462
24.77076355991714 0.0 -1.6250506190141962e-22 1.29680399166343e-19 2.9022145077081374e-23 -8.195726740221277e-05
28.48035868435805 0.0 5.671914033880514e-16 -4.505565225100714e-13 4.840304849767511e-18 -0.0003175853099094333
32.745491628777316 0.0 1.5399507574723468e-24 -1.4708831490512054e-21 1.5113681043769365e-27 -0.00013414482715140723
37.649358067924716 0.0 -1.882282955712959e-27 1.861248589793898e-24 1.6006689828420767e-32 -0.00012739296453269874
43.287612810830616 0.0 -1.0233302459266809e-29 1.0170791590532721e-26 2.184205533025055e-36 -6.54797328993984e-05
49.770235643321136 0.0 1.2901682480173235e-31 -1.292648644273388e-28 1.7814497072718072e-39 -9.824024795748347e-05
57.2236765935022 0.0 1.2901682480173235e-31 -1.292648644273388e-28 1.7814497072718072e-39 -9.824024795748347e-05
65.79332246575683 0.0 1.2901682480173235e-31 -1.292648644273388e-28 1.7814497072718072e-39 -9.824024795748347e-05
75.64633275546291 0.0 1.2901682480173235e-31 -1.292648644273388e-28 1.7814497072718072e-39 -9.824024795748347e-05
86.97490026177834 0.0 1.2901682480173235e-31 -1.292648644273388e-28 1.7814497072718072e-39 -9.824024795748347e-05
100.0 0.0 1.2901682480173235e-31 -1.292648644273388e-28 1.7814497072718072e-39 -9.824024795748347e-05
