# Omega_m = 0.258
# Omega_de = 0.742
# H0 = 72.0
# massDef = MvirC15
# concenDef = TJ03
# hmfDef = ST02
# biasDef = T08
# log10M1 = 12.529
# log10Mstar0 = 10.748
# beta = 0.356
# delta = 0.749
# gamma = 0.807
# log10Mstar_min = 10.4451
# log10Mstar_max = 10.6451
# sigma_log_M0 = 0.394
# sigma_lambda = 0.253
# B_cut = -1.0
# B_sat = 9.956
# beta_cut = -1.0
# beta_sat = 0.872
# alpha = 1.139
# fcen1 = -1.0
# fcen2 = -1.0
# hod = 0
# IxXB_Re = 0.01196
# IxXB_CR = 6.56997872802e-05
# gas_log10n0 = -2.2757241304
# gas_log10beta = -0.397940008672
# gas_log10rc = -1.77763527949
# gas_log10n0_1 = -2.11726021929
# gas_log10n0_2 = -0.29693164
# gas_log10n0_3 = nan
# gas_log10n0_4 = nan
# gas_log10beta_1 = -0.32104805
# gas_log10beta_2 = 0.26463453
# gas_log10beta_3 = nan
# gas_log10beta_4 = nan
# gas_log10rc_1 = -1.12356845357
# gas_log10rc_2 = 0.73917722
# gas_log10rc_3 = nan
# gas_log10rc_4 = nan
# ggl_pi_max = 60.0
# ggl_log10c = nan
# ggl_log10Mh = 14.0
# ggl_log10Mstar = nan
# wtheta_nz_N = 0
# wtheta_nz_z = <__main__.LP_c_double object at 0x105b497a0>
# wtheta_nz = <__main__.LP_c_double object at 0x105b497a0>
# XMM_PSF_rc_deg = 0.00211586211541
# XMM_PSF_alpha = 1.851542
# theta total cen sat XB twohalo
0.0001 356.79349546715866 149.67042414837232 0.9181948781839208 9.88529906845492 4.9540806205591705
0.00011497569953977356 341.16443236440966 149.75255700970882 0.9189672976479443 9.79931363515064 4.958091338193131
0.00013219411484660288 327.01298929812407 151.95512336179198 0.9283806537343582 10.284313605881486 5.004719622027821
0.0001519911082952933 314.4591200970927 151.75060793072564 0.9283048739469371 10.463665481998847 5.004832878638538
0.0001747528400007683 303.22224340219117 151.4814620139625 0.9281533696947789 10.22589334147932 5.0049817266246714
0.00020092330025650479 293.0790234657917 151.12775726652475 0.9278753452335247 9.879518217447892 5.00517886173003
0.00023101297000831605 283.8085963211824 150.66324751473533 0.9274819581047998 9.511691549723485 5.00543872077321
0.00026560877829466864 275.1266498726651 150.0549949454792 0.9269835374746495 8.934017343016667 5.0057810953159
0.0003053855508833416 266.7738351631953 149.2611119825724 0.9263551805481705 8.385836585676506 5.0062358326961975
0.0003511191734215131 258.4800371645576 148.22898226892974 0.9254161207084717 7.975589941537768 5.006839277115184
0.0004037017258596554 249.95588102707825 146.8949034288165 0.9240423487686672 7.382503215686413 5.007637656532826
0.0004641588833612782 240.90896066049632 145.17881943155402 0.9221963710712546 6.709850568180698 5.008690846952266
0.0005336699231206312 231.06279427548813 142.99246646743802 0.9198202600442514 6.084674305613204 5.010086869262499
0.0006135907273413176 220.18507141017028 140.23309549440455 0.9168696691110018 5.415643928686793 5.011936840499041
0.0007054802310718645 208.1238529680027 136.7931100495923 0.9133119101189939 4.79504455584801 5.014396281822821
0.0008111308307896872 194.83726412720853 132.5696903029819 0.9091349429373687 4.202769927804167 5.017636062273873
0.0009326033468832199 180.4158813102083 127.46968417912157 0.9043294903669566 3.580192221390371 5.021940305255104
0.0010722672220103231 165.10434407295148 121.43959306259029 0.8987487103097077 2.932218131060249 5.0276448681869885
0.0012328467394420659 149.2684874016704 114.46334008371764 0.8920411345890094 2.466668756183396 5.035255033695875
0.0014174741629268048 133.34614840278832 106.5991104057871 0.8832079590839574 2.0321967544551396 5.04540768702896
0.0016297508346206436 117.77925571373069 97.9684169670568 0.8708194332389404 1.6057303885044703 5.058997646003221
0.001873817422860383 102.97579379960882 88.7640224022002 0.8539337264937045 1.2210030145300892 5.077266140168485
0.0021544346900318843 89.26861034518402 79.24537419228629 0.8329838005803404 0.9316779312931319 5.101925804814544
0.0024770763559917113 76.87183180140967 69.69675355218843 0.8085359240541313 0.6603561693687051 5.135484774571298
0.002848035868435802 65.86902217220943 60.420541788903925 0.7793690383139918 0.4788769133439453 5.181675155059562
0.0032745491628777285 56.26257767221015 51.677104716915956 0.7440886472229528 0.33143737379835686 5.246302384874576
0.0037649358067924675 47.995868168580635 43.671437238375994 0.7030759990336397 0.2115024516590283 5.338020994247621
0.004328761281083062 40.98422784750264 36.540488545286536 0.6582148433193331 0.1409906990332388 5.471697238220559
0.004977023564332114 35.14599073549937 30.325054412189086 0.6112049102940561 0.08817733081806398 5.673354215369174
0.00572236765935022 30.387615050837095 25.015610459961938 0.5635324842317672 0.05778225440588504 5.985581402553408
0.006579332246575682 27.160897405052193 20.542643506733278 0.5170342754376929 0.03472921166623033 6.410968590091161
0.007564633275546291 23.41130037065964 16.81420421893734 0.4730353278775073 0.0203982259464706 6.395546621111209
0.008697490026177835 19.921046824800868 13.733497071249367 0.43069817702355706 0.012393455795156272 5.97127964589871
0.01 16.688542256799956 11.19597268648087 0.38840099532776395 0.0076378367360348115 5.320113724901046
0.011497569953977356 13.870229180324483 9.112469065446424 0.3467475687946503 0.004442606699938812 4.612996785313138
0.013219411484660288 11.558971610823376 7.403857961182415 0.30771096991027874 0.0023712112980420956 4.004264289631899
0.01519911082952933 9.725913866218086 6.002788229426871 0.2721242313723297 0.0013061099515043163 3.5496077856192647
0.01747528400007685 8.239958021876763 4.85475270203502 0.23937965845490955 0.0007398233156974558 3.1995058310310425
0.02009233002565048 6.967127912064578 3.9125657762591524 0.20869198228494096 0.0004058096502465749 2.87126532874396
0.023101297000831605 5.798232359639451 3.1387596405508074 0.1795614858191686 0.00025003883053820544 2.4975327905275626
0.026560877829466867 4.738903993079225 2.502424485305187 0.1524266094995605 0.00010976758584151487 2.103846149173594
0.030538555088334154 3.885363920137796 1.9784583961069313 0.12758767938226256 6.868638403916568e-05 1.7944216046007095
0.03511191734215131 3.232128103724828 1.5455334215908854 0.10523228392967954 2.933843142539925e-05 1.5866006002397697
0.040370172585965536 2.65295056554001 1.186551413155579 0.08567323804816461 1.3986899870134379e-05 1.3813423297262655
0.04641588833612782 2.0708802609354438 0.8858504278399306 0.06749401503176826 1.6998538747100526e-05 1.1182563180836576
0.05336699231206313 1.497002722454523 0.628491677178693 0.0489424113690526 3.120060249443696e-06 0.8204552258468133
0.061359072734131756 0.9532479817638535 0.403837753790529 0.030771126691919216 1.6059129694915329e-06 0.5182350956148428
0.07054802310718646 0.3756072948421033 0.1331180621975966 0.01626990361656745 7.344696297319198e-07 0.22802921132355883
0.08111308307896872 -0.011822393533637144 -0.014396336061424174 0.007087535606407645 2.7368391921106274e-07 -0.0009771751651384475
0.093260334688322 -0.07544227712876364 -0.0004435375448464313 0.002315889801966426 8.751396026754291e-07 -0.07539690453809188
0.10722672220103231 0.002502377991602281 0.0009705630061522465 0.0005855958299014283 4.8842915543834286e-08 0.0007701965286603509
0.12328467394420659 0.05593594183552806 -0.00012941260878252762 0.00018007871538534967 2.067367593810317e-08 0.05527728240693703
0.14174741629268048 -0.0028090918729659397 -1.790059623804116e-05 4.364077322020208e-05 1.7803393463667546e-08 -0.0027483848430740598
0.16297508346206452 -0.046808998340528124 1.1064343571147682e-05 -1.1078167044633354e-05 2.6853394537380515e-09 -0.04651160899493516
0.1873817422860385 0.0017003015329035 8.341683838418205e-07 3.985320502640069e-06 3.857699836757065e-09 0.001655975163552851
0.21544346900318845 0.03962566391222381 1.626852979535181e-07 1.6814727855326715e-05 4.470963430863137e-10 0.03946684724832792
0.24770763559917114 0.001799642906276823 2.7352315444362576e-07 -6.2852929175507495e-06 1.2754820681549537e-10 0.0018152681148990019
0.2848035868435802 -0.03212587462321528 3.356021880930533e-07 -2.3397626368365063e-05 3.196510454491939e-09 -0.03203076355165142
0.32745491628777285 -0.004447022088856956 4.740540307997306e-08 -5.861499812224305e-06 1.2918361074412613e-11 -0.004439265237823338
0.37649358067924676 0.02500778935607162 3.392569576030414e-08 2.8243353754686796e-07 1.6370795910257865e-11 0.024975173333050684
0.43287612810830617 0.005513708230205903 1.7619388435100885e-08 2.3143303922735483e-07 6.348656206750633e-12 0.005510668695379689
0.49770235643321137 -0.019141584584473365 5.493172733433961e-09 -5.855438400118605e-08 3.6930739034723723e-13 -0.01912731438100898
0.572236765935022 -0.005681926630894737 2.748159150323243e-08 -1.0192783345329481e-09 1.9507107226230378e-10 -0.0056805519027898444
0.6579332246575682 0.014151075248580575 1.5205468339246124e-09 2.8767023661337047e-09 5.729377079125593e-14 0.014144924470577492
0.7564633275546291 0.0055573224019214865 8.595219752393541e-10 -3.1914482966634683e-10 4.2314364438817026e-14 0.005556307582991443
0.8697490026177834 -0.010502036049226992 1.050531369189384e-09 -1.296612513320207e-11 3.656143639897967e-13 -0.010499231541931046
1.0 -0.00536393824562805 1.1868880936340847e-10 3.3406896620506896e-11 7.434244888046376e-16 -0.005363238781649492
1.1497569953977356 0.007563818790777737 3.3923230257093394e-10 1.4376327953642795e-11 8.491964630068947e-14 0.007562618088024237
1.3219411484660286 0.004834681613306811 4.440468918233976e-11 3.001068607848235e-12 6.579511954736233e-16 0.004834244642783249
1.5199110829529332 -0.0054157256908751355 1.0990852049683453e-11 1.1187417808307735e-12 5.845674478371086e-17 -0.005415250818165662
1.747528400007683 -0.00430015936481195 1.9298259738420485e-10 6.0293968843472136e-12 1.4315311783756024e-13 -0.00429991412917274
2.009233002565046 0.0036685555735432363 6.88987900974356e-14 4.527583682742421e-14 2.293342243588763e-18 0.003668359426047234
2.310129700083158 0.0035401849478865644 5.900780716264894e-12 4.421414265772588e-13 4.964177619475989e-17 0.0035400766157664856
2.6560877829466896 -0.0024942665624965088 2.7925951863044608e-12 2.1793997189518072e-13 1.2772973801951322e-17 -0.0024941826975189564
3.0538555088334185 -0.0029633935149546257 2.698524312631867e-16 3.627215208718902e-16 3.777258703001503e-20 -0.0029633444056102885
3.5111917342151346 0.0014858601949083335 1.9263252891240258e-11 7.135709423543599e-13 7.931589026230441e-15 0.0014858250757041058
4.037017258596558 0.0022979034962689643 -3.742166452684207e-17 3.628668376666835e-17 9.91044950686606e-21 0.0022978798413469154
4.641588833612782 -0.0008835742434132956 -1.1009750779200327e-16 1.1475026402937553e-16 1.434773398766161e-20 -0.0008835631915902171
5.336699231206313 -0.0018483752147374684 1.7326082826794542e-13 1.4230744578076623e-14 5.348830922242824e-19 -0.0018483636408555585
6.135907273413176 0.00033083326265680114 1.9211393697263104e-21 -1.3468711848696294e-17 1.4952477905248922e-23 0.00033082993222401243
7.054802310718645 0.0012855799183740914 -2.470866599398844e-15 3.0891939960125973e-15 1.066427186607337e-19 0.0012855749595292695
8.111308307896872 -0.00010898957929396278 -3.98486435399429e-20 2.8818444737616753e-18 4.635683722202717e-23 -0.00010898859120379251
9.326033468832199 -0.0009497928160740296 -3.400841043634316e-22 -1.1180029740935868e-18 1.396394510686126e-24 -0.0009497910149664765
10.722672220103231 -0.00017765904729848836 6.582218958007744e-14 5.12701841043596e-15 3.207292921663139e-19 -0.00017765930354778913
12.32846739442066 0.0004897875420098063 3.679289750696959e-25 1.5940345355601241e-21 9.37246583186811e-27 0.0004897869271523886
14.174741629268048 0.00017358013281961097 -1.2353704925953016e-21 -7.556125489263389e-19 2.5293686224229616e-24 0.00017358009353432766
16.297508346206435 -0.0003220048984416719 -8.363418260464078e-23 -1.6539176095379747e-19 2.916324042268063e-25 -0.0003220047307747974
18.73817422860383 -0.0003636538411908091 9.537006550695822e-28 4.765531542560772e-24 3.428723357229894e-29 -0.0003636537635972784
21.544346900318867 -0.00011135578048527952 5.92630388295371e-15 4.498838376607224e-16 1.9062793765733803e-20 -0.00011135583189916531
24.77076355991714 0.0 3.0579076847357756e-23 1.6169771640045257e-19 2.902214507708138e-23 -4.244453367407579e-05
28.48035868435805 0.0 -1.0674171850937753e-16 -5.617852823255881e-13 4.840304849767512e-18 -0.00017779352872535263
32.745491628777316 0.0 -2.884227965356836e-25 -1.8353184277202328e-21 1.5113681043769367e-27 -7.288777140183458e-05
37.649358067924716 0.0 3.5218460733323055e-28 2.3226840504921122e-24 1.600668982842077e-32 -6.865985424327203e-05
43.287612810830616 0.0 1.91441216436452e-30 1.2692527170718862e-26 2.1842055330250553e-36 -3.322401245320814e-05
49.770235643321136 0.0 -2.4130238621887823e-32 -1.613190724652619e-28 1.7814497072718075e-39 -4.7571565154092574e-05
57.223676593502205 0.0 -2.4130238621887823e-32 -1.613190724652619e-28 1.7814497072718075e-39 -4.7571565154092574e-05
65.79332246575683 0.0 -2.4130238621887823e-32 -1.613190724652619e-28 1.7814497072718075e-39 -4.7571565154092574e-05
75.64633275546291 0.0 -2.4130238621887823e-32 -1.613190724652619e-28 1.7814497072718075e-39 -4.7571565154092574e-05
86.97490026177834 0.0 -2.4130238621887823e-32 -1.613190724652619e-28 1.7814497072718075e-39 -4.7571565154092574e-05
100.0 0.0 -2.4130238621887823e-32 -1.613190724652619e-28 1.7814497072718075e-39 -4.7571565154092574e-05
