# Omega_m = 0.258
# Omega_de = 0.742
# H0 = 72.0
# massDef = M200m
# concenDef = TJ03
# hmfDef = T08
# biasDef = T08
# log10M1 = 12.529
# log10Mstar0 = 10.748
# beta = 0.356
# delta = 0.749
# gamma = 0.807
# log10Mstar_min = 10.4451
# log10Mstar_max = 10.6451
# sigma_log_M0 = 0.394
# sigma_lambda = 0.253
# B_cut = -1.0
# B_sat = 9.956
# beta_cut = -1.0
# beta_sat = 0.872
# alpha = 1.139
# fcen1 = -1.0
# fcen2 = -1.0
# hod = 0
# IxXB_Re = 0.01196
# IxXB_CR = 6.56997872802e-05
# gas_log10n0 = -2.2757241304
# gas_log10beta = -0.397940008672
# gas_log10rc = -1.77763527949
# gas_log10n0_1 = -2.5
# gas_log10n0_2 = 1.0
# gas_log10n0_3 = nan
# gas_log10n0_4 = nan
# gas_log10beta_1 = 0.301029995664
# gas_log10beta_2 = -0.45593195565
# gas_log10beta_3 = -0.301029995664
# gas_log10beta_4 = -0.301029995664
# gas_log10rc_1 = -0.52287874528
# gas_log10rc_2 = -1.39794000867
# gas_log10rc_3 = -1.09691001301
# gas_log10rc_4 = -1.09691001301
# ggl_pi_max = 60.0
# ggl_log10c = 0.69
# ggl_log10Mh = 13.257332
# ggl_log10Mstar = 11.0
# wtheta_nz_N = 40
# wtheta_nz_z = <__main__.LP_c_double object at 0x10d850950>
# wtheta_nz = <__main__.LP_c_double object at 0x10d850950>
# HOD_cen_N = 0
# HOD_cen_log10Mh = <__main__.LP_c_double object at 0x10d850950>
# HOD_cen_Ngal = <__main__.LP_c_double object at 0x10d850950>
# HOD_sat_N = 0
# HOD_sat_log10Mh = <__main__.LP_c_double object at 0x10d850950>
# HOD_sat_Ngal = <__main__.LP_c_double object at 0x10d850950>
# XMM_PSF_rc_deg = 0.00211586211541
# XMM_PSF_alpha = 1.851542
# theta total cen sat XB twohalo
0.0001 351.12935085008036 148.99528514794176 0.860830203299126 9.88529906845492 0.0
0.00011497569953977356 335.50149921524996 149.0768721820567 0.8615583138525382 9.79931363515064 0.0
0.00013219411484660288 321.348211684749 151.27299706958158 0.8703864913933012 10.284313605881486 0.0
0.0001519911082952933 308.79351248555895 151.0684815805771 0.8703212821811538 10.463665481998847 0.0
0.0001747528400007683 297.5569066486816 150.79933515740615 0.8701901751692177 10.22589334147932 0.0
0.00020092330025650479 287.41284015098154 150.44562967804475 0.8699441987485582 9.879518217447892 0.0
0.00023101297000831605 278.1400907483216 149.9811169302713 0.8695949629902237 9.511691549723485 0.0
0.00026560877829466864 269.4575086185697 149.37286067213523 0.8691527073872127 8.934017343016667 0.0
0.0003053855508833416 261.105550093308 148.57897544919217 0.8685946113537121 8.385836585676506 0.0
0.0003511191734215131 252.81231687348296 147.54684066101711 0.8677549336464554 7.975589941537768 0.0
0.0004037017258596554 244.28958050931064 146.21275543780325 0.8665153176217666 7.382503215686413 0.0
0.0004641588833612782 235.24312733086944 144.49666631537067 0.8648386840056687 6.709850568180698 0.0
0.0005336699231206312 225.39747581965938 142.31030403989732 0.8626662936215684 6.084674305613204 0.0
0.0006135907273413176 214.52067807959588 139.5509159075124 0.859936343233546 5.415643928686793 0.0
0.0007054802310718645 202.45888279330273 136.11091313200433 0.8565960571348817 4.79504455584801 0.0
0.0008111308307896872 189.1696884593658 131.88746387755424 0.85259420101648 4.202769927804167 0.0
0.0009326033468832199 174.74595909441055 126.78742264418696 0.8478828834563097 3.580192221390371 0.0
0.0010722672220103231 159.42838500806542 120.75728666801426 0.8422741838309538 2.932218131060249 0.0
0.0012328467394420659 143.5833534498405 113.7809736222976 0.8354262986202893 2.466668756183396 0.0
0.0014174741629268048 127.64939814531844 105.91666694278689 0.826456102659432 2.0321967544551396 0.0
0.0016297508346206436 112.07063429671476 97.2858757261651 0.8141013238105814 1.6057303885044703 0.0
0.001873817422860383 97.25343255536812 88.08134880327921 0.7974534332074436 1.2210030145300892 0.0
0.0021544346900318843 83.52657962830712 78.56252666371552 0.7766806469585317 0.9316779312931319 0.0
0.0024770763559917113 71.09880940028948 69.01364960278632 0.7520363897692319 0.6603561693687051 0.0
0.002848035868435802 60.05464139054375 59.73707842165547 0.7222960484350902 0.4788769133439453 0.0
0.0032745491628777285 50.38747352058383 50.99316743202736 0.6861906561280504 0.33143737379835686 0.0
0.0037649358067924675 42.037738810419576 42.986964801449204 0.6440695823797037 0.2115024516590283 0.0
0.004328761281083062 34.90472801747551 35.855355181512124 0.5977646826492194 0.1409906990332388 0.0
0.004977023564332114 28.861760135261886 29.639001837893645 0.5492322052998928 0.08817733081806398 0.0
0.00572236765935022 23.775146757712438 24.328252503491175 0.5004343249126276 0.05778225440588504 0.0
0.006579332246575682 19.517301850187305 19.853570383493327 0.45359546314689975 0.03472921166623033 0.0
0.007564633275546291 15.967806981564285 16.12279097496271 0.4100679681333213 0.0203982259464706 0.0
0.008697490026177835 13.014503682034281 13.03893442099813 0.3685397533230648 0.012393455795156272 0.0
0.01 10.557188039588912 10.497232419548368 0.3268064751070446 0.0076378367360348115 0.0
0.011497569953977356 8.51514454238225 8.407993006568136 0.285378858165943 0.004442606699938812 0.0
0.013219411484660288 6.822383732020576 6.691480401327646 0.24626447217506672 0.0023712112980420956 0.0
0.01519911082952933 5.414573197870013 5.278455180930223 0.20956009886357874 0.0013061099515043163 0.0
0.01747528400007685 4.204827654696897 4.080691281153492 0.17409038244600802 0.0007398233156974558 0.0
0.02009233002565048 3.2363561371672507 3.12406468302698 0.14068771851253828 0.0004058096502465749 0.0
0.023101297000831605 2.439696490742417 2.347067058507913 0.11149547411317129 0.00025003883053820544 0.0
0.026560877829466867 1.7336553698437716 1.6582269375292853 0.08499497249745744 0.00010976758584151487 0.0
0.030538555088334154 1.1107178285885146 1.047942951933079 0.05790752650575015 6.868638403916568e-05 0.0
0.03511191734215131 0.33895414257543544 0.3229326956085551 0.032441869577014414 2.933843142539925e-05 0.0
0.040370172585965536 -0.018436639769089772 -0.020148835719888458 0.014661926881039065 1.3986899870134379e-05 0.0
0.04641588833612782 0.0006862422255866841 -0.0010934785559839541 0.005793190565141291 1.6998538747100526e-05 0.0
0.05336699231206313 0.004583629487610621 0.0024304870663994413 0.002004214723043576 3.120060249443696e-06 0.0
0.061359072734131756 0.0002936575900907521 -6.714854146560623e-05 0.0005467075588143117 1.6059129694915329e-06 0.0
0.07054802310718646 -3.517387979152919e-05 1.069201503772738e-05 5.6120203171539296e-05 7.344696297319198e-07 0.0
0.08111308307896872 -7.215481940019731e-05 5.180123014073676e-05 -9.082904699727294e-05 2.7368391921106274e-07 0.0
0.093260334688322 -6.1013476205679483e-05 2.204730868848804e-05 -6.007386448482527e-05 8.751396026754291e-07 0.0
0.10722672220103231 3.2935895235631715e-05 6.819217754324976e-06 3.362361837960865e-05 4.8842915543834286e-08 0.0
0.12328467394420659 5.522650247430711e-05 4.007445081472929e-06 5.473248349007723e-05 2.067367593810317e-08 0.0
0.14174741629268048 -1.8282424431888664e-05 2.767774184895916e-06 -1.8056846721233632e-05 1.7803393463667546e-08 0.0
0.16297508346206452 -5.289291176484627e-05 8.393700951425815e-07 -5.2578548954045615e-05 2.6853394537380515e-09 0.0
0.1873817422860385 -1.1413409674817352e-06 7.874178732129723e-07 -1.1723686178204674e-06 3.857699836757065e-09 0.0
0.21544346900318845 3.33425569101512e-05 2.5149559627536846e-07 3.3216262429521245e-05 4.470963430863137e-10 0.0
0.24770763559917114 -3.552345120573764e-06 1.0185615510389877e-07 -3.5386619757188344e-06 1.2754820681549537e-10 0.0
0.2848035868435802 -3.5469758781974693e-05 2.797367370673651e-07 -3.539494705563291e-05 3.196510454491939e-09 0.0
0.32745491628777285 -9.320669906962726e-06 2.3800657580044863e-08 -9.335064369527317e-06 1.2918361074412613e-11 0.0
0.37649358067924676 4.451723213358209e-07 1.982082039485177e-08 4.5089376523594763e-07 1.6370795910257865e-11 0.0
0.43287612810830617 3.7148079061406384e-07 1.0551548039103887e-08 3.68269435768969e-07 6.348656206750633e-12 0.0
0.49770235643321137 -9.444130071151815e-08 2.0372599819963892e-09 -9.401602969061045e-08 3.6930739034723723e-13 0.0
0.572236765935022 -2.3449069201903904e-09 2.590532907122636e-08 -1.998280744061692e-09 1.9507107226230378e-10 0.0
0.6579332246575682 4.429134405813175e-09 4.4684716541543047e-10 4.44427671567531e-09 5.729377079125593e-14 0.0
0.7564633275546291 -6.038085440713495e-10 3.5739123224366216e-10 -5.854263529324069e-10 4.2314364438817026e-14 0.0
0.8697490026177834 -9.696770599362321e-11 8.186881658003568e-10 -6.828302736312556e-11 3.656143639897967e-13 0.0
1.0 3.635199318132031e-11 -1.9120361589303721e-13 3.662850334971597e-11 7.434244888046376e-16 0.0
1.1497569953977356 -1.5267338583164417e-12 2.749208432840473e-10 8.531477353516936e-12 8.491964630068947e-14 0.0
1.3219411484660286 -1.1503095095525118e-12 3.2262119252074706e-12 -3.785913207909011e-13 6.579511954736233e-16 0.0
1.5199110829529332 2.1950696261023305e-13 4.8087085772190597e-14 2.488436502481595e-13 5.845674478371086e-17 0.0
1.747528400007683 1.3898158073608548e-14 1.8373048817860517e-10 5.101085190731362e-12 1.4315311783756024e-13 0.0
2.009233002565046 -9.48685039892152e-15 -5.580903640636746e-17 -1.149001225197158e-14 2.293342243588763e-18 0.0
2.310129700083158 8.529375036027021e-16 1.372468445148306e-13 5.316384162493634e-14 4.964177619475989e-17 0.0
2.6560877829466896 2.320658102005884e-16 1.2099552248139734e-14 8.418835401662092e-15 1.2772973801951322e-17 0.0
3.0538555088334185 -6.083452779606125e-17 -1.989044860521896e-19 1.8480993318125791e-16 3.777258703001503e-20 0.0
3.5111917342151346 -2.5618479990309075e-19 1.7907777809302078e-11 5.946818965169629e-13 7.931589026230441e-15 0.0
4.037017258596558 2.1189797435020533e-18 2.5118680572695212e-20 -4.5505756004469335e-17 9.91044950686606e-21 0.0
4.641588833612782 -2.8957837489410457e-19 9.440174013851649e-20 -2.967600873983698e-18 1.434773398766161e-20 0.0
5.336699231206313 -3.873739229779963e-20 1.381360055759843e-16 8.467312108136725e-17 5.348830922242824e-19 0.0
6.135907273413176 1.48130019126206e-20 -1.193679993626438e-24 -2.1137539827489425e-17 1.4952477905248922e-23 0.0
7.054802310718645 -6.579310315670235e-22 -8.324814947345147e-19 -1.349838716137614e-17 1.066427186607337e-19 0.0
8.111308307896872 -4.277277744063844e-22 2.5774338697619068e-23 6.270080919488764e-18 4.635683722202717e-23 0.0
9.326033468832199 8.116693129014683e-23 2.016679293746156e-25 -1.7742597241882773e-18 1.396394510686126e-24 0.0
10.722672220103231 4.776235516285354e-24 2.1907005848753638e-16 2.3845115004519848e-16 3.207292921663139e-19 0.0
12.32846739442066 -3.320442009646116e-24 -2.0813101812902812e-28 2.543221045122475e-21 9.37246583186811e-27 0.0
14.174741629268048 2.970470965926423e-25 7.511115661015846e-25 -1.0129390617178355e-18 2.5293686224229616e-24 0.0
16.297508346206435 7.829949642161736e-26 5.0001046314309437e-26 -2.6354556436587505e-19 2.916324042268063e-25 0.0
18.73817422860383 -2.054633225645534e-26 -5.323802521013264e-31 7.601193258735323e-24 3.428723357229894e-29 0.0
21.544346900318867 -2.281064883324966e-28 -4.665799448437387e-18 7.906824123735247e-18 1.9062793765733803e-20 0.0
24.77076355991714 0.0 -1.697017065073064e-26 2.578889298200482e-19 2.902214507708138e-23 0.0
28.48035868435805 0.0 5.926713980013688e-20 -8.959887177611801e-13 4.840304849767512e-18 0.0
32.745491628777316 0.0 1.5658204661998371e-28 -2.926303996864202e-21 1.5113681043769367e-27 0.0
37.649358067924716 0.0 -1.9028160661959482e-31 3.703200914381205e-24 1.600668982842077e-32 0.0
43.287612810830616 0.0 -1.0335865026221123e-33 2.0236351800613566e-26 2.1842055330250553e-36 0.0
49.770235643321136 0.0 1.3012864730645118e-35 -2.571965351249986e-28 1.7814497072718075e-39 0.0
57.223676593502205 0.0 1.3012864730645118e-35 -2.571965351249986e-28 1.7814497072718075e-39 0.0
65.79332246575683 0.0 1.3012864730645118e-35 -2.571965351249986e-28 1.7814497072718075e-39 0.0
75.64633275546291 0.0 1.3012864730645118e-35 -2.571965351249986e-28 1.7814497072718075e-39 0.0
86.97490026177834 0.0 1.3012864730645118e-35 -2.571965351249986e-28 1.7814497072718075e-39 0.0
100.0 0.0 1.3012864730645118e-35 -2.571965351249986e-28 1.7814497072718075e-39 0.0
